Vitesse relative de bras_ass<2> / bati_ass<1> dans la liaison Pivot2
wx(rad/s)
Temps(s)   wx(rad/s)     
0.000000 -0.101131
0.005000 -0.101153
0.010000 -0.101176
0.015000 -0.101199
0.020000 -0.101222
0.025000 -0.101245
0.030000 -0.101268
0.035000 -0.101291
0.040000 -0.101314
0.045000 -0.101337
0.050000 -0.101360
0.055000 -0.101383
0.060000 -0.101406
0.065000 -0.101429
0.070000 -0.101452
0.075000 -0.101475
0.080000 -0.101498
0.085000 -0.101521
0.090000 -0.101544
0.095000 -0.101568
0.100000 -0.101591
0.105000 -0.101614
0.110000 -0.101637
0.115000 -0.101661
0.120000 -0.101684
0.125000 -0.101708
0.130000 -0.101731
0.135000 -0.101754
0.140000 -0.101778
0.145000 -0.101801
0.150000 -0.101825
0.155000 -0.101848
0.160000 -0.101872
0.165000 -0.101895
0.170000 -0.101919
0.175000 -0.101943
0.180000 -0.101966
0.185000 -0.101990
0.190000 -0.102014
0.195000 -0.102037
0.200000 -0.102061
0.205000 -0.102085
0.210000 -0.102109
0.215000 -0.102132
0.220000 -0.102156
0.225000 -0.102180
0.230000 -0.102204
0.235000 -0.102228
0.240000 -0.102252
0.245000 -0.102276
0.250000 -0.102300
0.255000 -0.102324
0.260000 -0.102348
0.265000 -0.102372
0.270000 -0.102396
0.275000 -0.102420
0.280000 -0.102444
0.285000 -0.102468
0.290000 -0.102493
0.295000 -0.102517
0.300000 -0.102541
0.305000 -0.102565
0.310000 -0.102590
0.315000 -0.102614
0.320000 -0.102638
0.325000 -0.102663
0.330000 -0.102687
0.335000 -0.102711
0.340000 -0.102736
0.345000 -0.102760
0.350000 -0.102785
0.355000 -0.102809
0.360000 -0.102834
0.365000 -0.102858
0.370000 -0.102883
0.375000 -0.102908
0.380000 -0.102932
0.385000 -0.102957
0.390000 -0.102982
0.395000 -0.103006
0.400000 -0.103031
0.405000 -0.103056
0.410000 -0.103081
0.415000 -0.103106
0.420000 -0.103131
0.425000 -0.103155
0.430000 -0.103180
0.435000 -0.103205
0.440000 -0.103230
0.445000 -0.103255
0.450000 -0.103280
0.455000 -0.103305
0.460000 -0.103330
0.465000 -0.103356
0.470000 -0.103381
0.475000 -0.103406
0.480000 -0.103431
0.485000 -0.103456
0.490000 -0.103481
0.495000 -0.103507
0.500000 -0.103532
0.505000 -0.103557
0.510000 -0.103583
0.515000 -0.103608
0.520000 -0.103633
0.525000 -0.103659
0.530000 -0.103684
0.535000 -0.103710
0.540000 -0.103735
0.545000 -0.103761
0.550000 -0.103786
0.555000 -0.103812
0.560000 -0.103838
0.565000 -0.103863
0.570000 -0.103889
0.575000 -0.103915
0.580000 -0.103940
0.585000 -0.103966
0.590000 -0.103992
0.595000 -0.104018
0.600000 -0.104044
0.605000 -0.104070
0.610000 -0.104095
0.615000 -0.104121
0.620000 -0.104147
0.625000 -0.104173
0.630000 -0.104199
0.635000 -0.104225
0.640000 -0.104251
0.645000 -0.104278
0.650000 -0.104304
0.655000 -0.104330
0.660000 -0.104356
0.665000 -0.104382
0.670000 -0.104408
0.675000 -0.104435
0.680000 -0.104461
0.685000 -0.104487
0.690000 -0.104514
0.695000 -0.104540
0.700000 -0.104566
0.705000 -0.104593
0.710000 -0.104619
0.715000 -0.104646
0.720000 -0.104672
0.725000 -0.104699
0.730000 -0.104726
0.735000 -0.104752
0.740000 -0.104779
0.745000 -0.104805
0.750000 -0.104832
0.755000 -0.104859
0.760000 -0.104886
0.765000 -0.104912
0.770000 -0.104939
0.775000 -0.104966
0.780000 -0.104993
0.785000 -0.105020
0.790000 -0.105047
0.795000 -0.105074
0.800000 -0.105101
0.805000 -0.105128
0.810000 -0.105155
0.815000 -0.105182
0.820000 -0.105209
0.825000 -0.105236
0.830000 -0.105263
0.835000 -0.105291
0.840000 -0.105318
0.845000 -0.105345
0.850000 -0.105372
0.855000 -0.105400
0.860000 -0.105427
0.865000 -0.105454
0.870000 -0.105482
0.875000 -0.105509
0.880000 -0.105537
0.885000 -0.105564
0.890000 -0.105592
0.895000 -0.105619
0.900000 -0.105647
0.905000 -0.105675
0.910000 -0.105702
0.915000 -0.105730
0.920000 -0.105758
0.925000 -0.105786
0.930000 -0.105813
0.935000 -0.105841
0.940000 -0.105869
0.945000 -0.105897
0.950000 -0.105925
0.955000 -0.105953
0.960000 -0.105981
0.965000 -0.106009
0.970000 -0.106037
0.975000 -0.106065
0.980000 -0.106093
0.985000 -0.106121
0.990000 -0.106149
0.995000 -0.106177
1.000000 -0.106206
1.005000 -0.106234
1.010000 -0.106262
1.015000 -0.106290
1.020000 -0.106319
1.025000 -0.106347
1.030000 -0.106376
1.035000 -0.106404
1.040000 -0.106432
1.045000 -0.106461
1.050000 -0.106490
1.055000 -0.106518
1.060000 -0.106547
1.065000 -0.106575
1.070000 -0.106604
1.075000 -0.106633
1.080000 -0.106661
1.085000 -0.106690
1.090000 -0.106719
1.095000 -0.106748
1.100000 -0.106777
1.105000 -0.106806
1.110000 -0.106834
1.115000 -0.106863
1.120000 -0.106892
1.125000 -0.106921
1.130000 -0.106951
1.135000 -0.106980
1.140000 -0.107009
1.145000 -0.107038
1.150000 -0.107067
1.155000 -0.107096
1.160000 -0.107126
1.165000 -0.107155
1.170000 -0.107184
1.175000 -0.107214
1.180000 -0.107243
1.185000 -0.107272
1.190000 -0.107302
1.195000 -0.107331
1.200000 -0.107361
1.205000 -0.107390
1.210000 -0.107420
1.215000 -0.107450
1.220000 -0.107479
1.225000 -0.107509
1.230000 -0.107539
1.235000 -0.107568
1.240000 -0.107598
1.245000 -0.107628
1.250000 -0.107658
1.255000 -0.107688
1.260000 -0.107718
1.265000 -0.107748
1.270000 -0.107778
1.275000 -0.107808
1.280000 -0.107838
1.285000 -0.107868
1.290000 -0.107898
1.295000 -0.107928
1.300000 -0.107959
1.305000 -0.107989
1.310000 -0.108019
1.315000 -0.108049
1.320000 -0.108080
1.325000 -0.108110
1.330000 -0.108141
1.335000 -0.108171
1.340000 -0.108201
1.345000 -0.108232
1.350000 -0.108263
1.355000 -0.108293
1.360000 -0.108324
1.365000 -0.108354
1.370000 -0.108385
1.375000 -0.108416
1.380000 -0.108447
1.385000 -0.108478
1.390000 -0.108508
1.395000 -0.108539
1.400000 -0.108570
1.405000 -0.108601
1.410000 -0.108632
1.415000 -0.108663
1.420000 -0.108694
1.425000 -0.108725
1.430000 -0.108756
1.435000 -0.108788
1.440000 -0.108819
1.445000 -0.108850
1.450000 -0.108881
1.455000 -0.108913
1.460000 -0.108944
1.465000 -0.108975
1.470000 -0.109007
1.475000 -0.109038
1.480000 -0.109070
1.485000 -0.109101
1.490000 -0.109133
1.495000 -0.109165
1.500000 -0.109196
1.505000 -0.109228
1.510000 -0.109260
1.515000 -0.109291
1.520000 -0.109323
1.525000 -0.109355
1.530000 -0.109387
1.535000 -0.109419
1.540000 -0.109451
1.545000 -0.109483
1.550000 -0.109515
1.555000 -0.109547
1.560000 -0.109579
1.565000 -0.109611
1.570000 -0.109643
1.575000 -0.109675
1.580000 -0.109708
1.585000 -0.109740
1.590000 -0.109772
1.595000 -0.109805
1.600000 -0.109837
1.605000 -0.109870
1.610000 -0.109902
1.615000 -0.109935
1.620000 -0.109967
1.625000 -0.110000
1.630000 -0.110032
1.635000 -0.110065
1.640000 -0.110098
1.645000 -0.110131
1.650000 -0.110163
1.655000 -0.110196
1.660000 -0.110229
1.665000 -0.110262
1.670000 -0.110295
1.675000 -0.110328
1.680000 -0.110361
1.685000 -0.110394
1.690000 -0.110427
1.695000 -0.110460
1.700000 -0.110494
1.705000 -0.110527
1.710000 -0.110560
1.715000 -0.110593
1.720000 -0.110627
1.725000 -0.110660
1.730000 -0.110694
1.735000 -0.110727
1.740000 -0.110761
1.745000 -0.110794
1.750000 -0.110828
1.755000 -0.110861
1.760000 -0.110895
1.765000 -0.110929
1.770000 -0.110962
1.775000 -0.110996
1.780000 -0.111030
1.785000 -0.111064
1.790000 -0.111098
1.795000 -0.111132
1.800000 -0.111166
1.805000 -0.111200
1.810000 -0.111234
1.815000 -0.111268
1.820000 -0.111302
1.825000 -0.111337
1.830000 -0.111371
1.835000 -0.111405
1.840000 -0.111439
1.845000 -0.111474
1.850000 -0.111508
1.855000 -0.111543
1.860000 -0.111577
1.865000 -0.111612
1.870000 -0.111646
1.875000 -0.111681
1.880000 -0.111716
1.885000 -0.111750
1.890000 -0.111785
1.895000 -0.111820
1.900000 -0.111855
1.905000 -0.111890
1.910000 -0.111925
1.915000 -0.111960
1.920000 -0.111995
1.925000 -0.112030
1.930000 -0.112065
1.935000 -0.112100
1.940000 -0.112135
1.945000 -0.112170
1.950000 -0.112206
1.955000 -0.112241
1.960000 -0.112276
1.965000 -0.112312
1.970000 -0.112347
1.975000 -0.112383
1.980000 -0.112418
1.985000 -0.112454
1.990000 -0.112490
1.995000 -0.112525
2.000000 -0.112561
2.005000 -0.112597
2.010000 -0.112633
2.015000 -0.112668
2.020000 -0.112704
2.025000 -0.112740
2.030000 -0.112776
2.035000 -0.112812
2.040000 -0.112848
2.045000 -0.112884
2.050000 -0.112921
2.055000 -0.112957
2.060000 -0.112993
2.065000 -0.113029
2.070000 -0.113066
2.075000 -0.113102
2.080000 -0.113139
2.085000 -0.113175
2.090000 -0.113212
2.095000 -0.113248
2.100000 -0.113285
2.105000 -0.113322
2.110000 -0.113358
2.115000 -0.113395
2.120000 -0.113432
2.125000 -0.113469
2.130000 -0.113506
2.135000 -0.113543
2.140000 -0.113580
2.145000 -0.113617
2.150000 -0.113654
2.155000 -0.113691
2.160000 -0.113728
2.165000 -0.113765
2.170000 -0.113803
2.175000 -0.113840
2.180000 -0.113877
2.185000 -0.113915
2.190000 -0.113952
2.195000 -0.113990
2.200000 -0.114027
2.205000 -0.114065
2.210000 -0.114103
2.215000 -0.114140
2.220000 -0.114178
2.225000 -0.114216
2.230000 -0.114254
2.235000 -0.114292
2.240000 -0.114330
2.245000 -0.114368
2.250000 -0.114406
2.255000 -0.114444
2.260000 -0.114482
2.265000 -0.114520
2.270000 -0.114558
2.275000 -0.114597
2.280000 -0.114635
2.285000 -0.114673
2.290000 -0.114712
2.295000 -0.114750
2.300000 -0.114789
2.305000 -0.114828
2.310000 -0.114866
2.315000 -0.114905
2.320000 -0.114944
2.325000 -0.114983
2.330000 -0.115021
2.335000 -0.115060
2.340000 -0.115099
2.345000 -0.115138
2.350000 -0.115177
2.355000 -0.115216
2.360000 -0.115256
2.365000 -0.115295
2.370000 -0.115334
2.375000 -0.115373
2.380000 -0.115413
2.385000 -0.115452
2.390000 -0.115492
2.395000 -0.115531
2.400000 -0.115571
2.405000 -0.115610
2.410000 -0.115650
2.415000 -0.115690
2.420000 -0.115729
2.425000 -0.115769
2.430000 -0.115809
2.435000 -0.115849
2.440000 -0.115889
2.445000 -0.115929
2.450000 -0.115969
2.455000 -0.116009
2.460000 -0.116050
2.465000 -0.116090
2.470000 -0.116130
2.475000 -0.116170
2.480000 -0.116211
2.485000 -0.116251
2.490000 -0.116292
2.495000 -0.116332
2.500000 -0.116373
2.505000 -0.116414
2.510000 -0.116454
2.515000 -0.116495
2.520000 -0.116536
2.525000 -0.116577
2.530000 -0.116618
2.535000 -0.116659
2.540000 -0.116700
2.545000 -0.116741
2.550000 -0.116782
2.555000 -0.116824
2.560000 -0.116865
2.565000 -0.116906
2.570000 -0.116948
2.575000 -0.116989
2.580000 -0.117030
2.585000 -0.117072
2.590000 -0.117114
2.595000 -0.117155
2.600000 -0.117197
2.605000 -0.117239
2.610000 -0.117281
2.615000 -0.117323
2.620000 -0.117365
2.625000 -0.117407
2.630000 -0.117449
2.635000 -0.117491
2.640000 -0.117533
2.645000 -0.117575
2.650000 -0.117617
2.655000 -0.117660
2.660000 -0.117702
2.665000 -0.117745
2.670000 -0.117787
2.675000 -0.117830
2.680000 -0.117872
2.685000 -0.117915
2.690000 -0.117958
2.695000 -0.118001
2.700000 -0.118044
2.705000 -0.118087
2.710000 -0.118130
2.715000 -0.118173
2.720000 -0.118216
2.725000 -0.118259
2.730000 -0.118302
2.735000 -0.118345
2.740000 -0.118389
2.745000 -0.118432
2.750000 -0.118476
2.755000 -0.118519
2.760000 -0.118563
2.765000 -0.118606
2.770000 -0.118650
2.775000 -0.118694
2.780000 -0.118738
2.785000 -0.118782
2.790000 -0.118826
2.795000 -0.118870
2.800000 -0.118914
2.805000 -0.118958
2.810000 -0.119002
2.815000 -0.119046
2.820000 -0.119091
2.825000 -0.119135
2.830000 -0.119179
2.835000 -0.119224
2.840000 -0.119268
2.845000 -0.119313
2.850000 -0.119358
2.855000 -0.119402
2.860000 -0.119447
2.865000 -0.119492
2.870000 -0.119537
2.875000 -0.119582
2.880000 -0.119627
2.885000 -0.119672
2.890000 -0.119718
2.895000 -0.119763
2.900000 -0.119808
2.905000 -0.119853
2.910000 -0.119899
2.915000 -0.119944
2.920000 -0.119990
2.925000 -0.120036
2.930000 -0.120081
2.935000 -0.120127
2.940000 -0.120173
2.945000 -0.120219
2.950000 -0.120265
2.955000 -0.120311
2.960000 -0.120357
2.965000 -0.120403
2.970000 -0.120449
2.975000 -0.120496
2.980000 -0.120542
2.985000 -0.120588
2.990000 -0.120635
2.995000 -0.120682
3.000000 -0.120728
3.005000 -0.120775
3.010000 -0.120822
3.015000 -0.120868
3.020000 -0.120915
3.025000 -0.120962
3.030000 -0.121009
3.035000 -0.121056
3.040000 -0.121104
3.045000 -0.121151
3.050000 -0.121198
3.055000 -0.121245
3.060000 -0.121293
3.065000 -0.121340
3.070000 -0.121388
3.075000 -0.121436
3.080000 -0.121483
3.085000 -0.121531
3.090000 -0.121579
3.095000 -0.121627
3.100000 -0.121675
3.105000 -0.121723
3.110000 -0.121771
3.115000 -0.121819
3.120000 -0.121868
3.125000 -0.121916
3.130000 -0.121964
3.135000 -0.122013
3.140000 -0.122061
3.145000 -0.122110
3.150000 -0.122159
3.155000 -0.122207
3.160000 -0.122256
3.165000 -0.122305
3.170000 -0.122354
3.175000 -0.122403
3.180000 -0.122452
3.185000 -0.122501
3.190000 -0.122551
3.195000 -0.122600
3.200000 -0.122650
3.205000 -0.122699
3.210000 -0.122749
3.215000 -0.122798
3.220000 -0.122848
3.225000 -0.122898
3.230000 -0.122948
3.235000 -0.122997
3.240000 -0.123047
3.245000 -0.123098
3.250000 -0.123148
3.255000 -0.123198
3.260000 -0.123248
3.265000 -0.123299
3.270000 -0.123349
3.275000 -0.123400
3.280000 -0.123450
3.285000 -0.123501
3.290000 -0.123552
3.295000 -0.123602
3.300000 -0.123653
3.305000 -0.123704
3.310000 -0.123755
3.315000 -0.123807
3.320000 -0.123858
3.325000 -0.123909
3.330000 -0.123960
3.335000 -0.124012
3.340000 -0.124063
3.345000 -0.124115
3.350000 -0.124167
3.355000 -0.124218
3.360000 -0.124270
3.365000 -0.124322
3.370000 -0.124374
3.375000 -0.124426
3.380000 -0.124478
3.385000 -0.124531
3.390000 -0.124583
3.395000 -0.124635
3.400000 -0.124688
3.405000 -0.124740
3.410000 -0.124793
3.415000 -0.124846
3.420000 -0.124898
3.425000 -0.124951
3.430000 -0.125004
3.435000 -0.125057
3.440000 -0.125110
3.445000 -0.125164
3.450000 -0.125217
3.455000 -0.125270
3.460000 -0.125324
3.465000 -0.125377
3.470000 -0.125431
3.475000 -0.125485
3.480000 -0.125538
3.485000 -0.125592
3.490000 -0.125646
3.495000 -0.125700
3.500000 -0.125754
3.505000 -0.125808
3.510000 -0.125863
3.515000 -0.125917
3.520000 -0.125972
3.525000 -0.126026
3.530000 -0.126081
3.535000 -0.126135
3.540000 -0.126190
3.545000 -0.126245
3.550000 -0.126300
3.555000 -0.126355
3.560000 -0.126410
3.565000 -0.126465
3.570000 -0.126521
3.575000 -0.126576
3.580000 -0.126632
3.585000 -0.126687
3.590000 -0.126743
3.595000 -0.126799
3.600000 -0.126854
3.605000 -0.126910
3.610000 -0.126966
3.615000 -0.127022
3.620000 -0.127079
3.625000 -0.127135
3.630000 -0.127191
3.635000 -0.127248
3.640000 -0.127304
3.645000 -0.127361
3.650000 -0.127418
3.655000 -0.127474
3.660000 -0.127531
3.665000 -0.127588
3.670000 -0.127645
3.675000 -0.127703
3.680000 -0.127760
3.685000 -0.127817
3.690000 -0.127875
3.695000 -0.127932
3.700000 -0.127990
3.705000 -0.128048
3.710000 -0.128105
3.715000 -0.128163
3.720000 -0.128221
3.725000 -0.128279
3.730000 -0.128338
3.735000 -0.128396
3.740000 -0.128454
3.745000 -0.128513
3.750000 -0.128571
3.755000 -0.128630
3.760000 -0.128689
3.765000 -0.128748
3.770000 -0.128807
3.775000 -0.128866
3.780000 -0.128925
3.785000 -0.128984
3.790000 -0.129043
3.795000 -0.129103
3.800000 -0.129162
3.805000 -0.129222
3.810000 -0.129282
3.815000 -0.129342
3.820000 -0.129402
3.825000 -0.129462
3.830000 -0.129522
3.835000 -0.129582
3.840000 -0.129642
3.845000 -0.129703
3.850000 -0.129763
3.855000 -0.129824
3.860000 -0.129885
3.865000 -0.129945
3.870000 -0.130006
3.875000 -0.130067
3.880000 -0.130128
3.885000 -0.130190
3.890000 -0.130251
3.895000 -0.130312
3.900000 -0.130374
3.905000 -0.130436
3.910000 -0.130497
3.915000 -0.130559
3.920000 -0.130621
3.925000 -0.130683
3.930000 -0.130745
3.935000 -0.130808
3.940000 -0.130870
3.945000 -0.130933
3.950000 -0.130995
3.955000 -0.131058
3.960000 -0.131121
3.965000 -0.131184
3.970000 -0.131247
3.975000 -0.131310
3.980000 -0.131373
3.985000 -0.131436
3.990000 -0.131500
3.995000 -0.131563
4.000000 -0.131627
4.005000 -0.131691
4.010000 -0.131754
4.015000 -0.131818
4.020000 -0.131883
4.025000 -0.131947
4.030000 -0.132011
4.035000 -0.132075
4.040000 -0.132140
4.045000 -0.132205
4.050000 -0.132269
4.055000 -0.132334
4.060000 -0.132399
4.065000 -0.132464
4.070000 -0.132529
4.075000 -0.132595
4.080000 -0.132660
4.085000 -0.132726
4.090000 -0.132791
4.095000 -0.132857
4.100000 -0.132923
4.105000 -0.132989
4.110000 -0.133055
4.115000 -0.133121
4.120000 -0.133188
4.125000 -0.133254
4.130000 -0.133321
4.135000 -0.133387
4.140000 -0.133454
4.145000 -0.133521
4.150000 -0.133588
4.155000 -0.133655
4.160000 -0.133723
4.165000 -0.133790
4.170000 -0.133858
4.175000 -0.133925
4.180000 -0.133993
4.185000 -0.134061
4.190000 -0.134129
4.195000 -0.134197
4.200000 -0.134265
4.205000 -0.134333
4.210000 -0.134402
4.215000 -0.134471
4.220000 -0.134539
4.225000 -0.134608
4.230000 -0.134677
4.235000 -0.134746
4.240000 -0.134815
4.245000 -0.134885
4.250000 -0.134954
4.255000 -0.135024
4.260000 -0.135093
4.265000 -0.135163
4.270000 -0.135233
4.275000 -0.135303
4.280000 -0.135374
4.285000 -0.135444
4.290000 -0.135514
4.295000 -0.135585
4.300000 -0.135656
4.305000 -0.135727
4.310000 -0.135798
4.315000 -0.135869
4.320000 -0.135940
4.325000 -0.136011
4.330000 -0.136083
4.335000 -0.136154
4.340000 -0.136226
4.345000 -0.136298
4.350000 -0.136370
4.355000 -0.136442
4.360000 -0.136514
4.365000 -0.136587
4.370000 -0.136659
4.375000 -0.136732
4.380000 -0.136805
4.385000 -0.136878
4.390000 -0.136951
4.395000 -0.137024
4.400000 -0.137098
4.405000 -0.137171
4.410000 -0.137245
4.415000 -0.137318
4.420000 -0.137392
4.425000 -0.137466
4.430000 -0.137541
4.435000 -0.137615
4.440000 -0.137689
4.445000 -0.137764
4.450000 -0.137839
4.455000 -0.137914
4.460000 -0.137989
4.465000 -0.138064
4.470000 -0.138139
4.475000 -0.138215
4.480000 -0.138290
4.485000 -0.138366
4.490000 -0.138442
4.495000 -0.138518
4.500000 -0.138594
4.505000 -0.138670
4.510000 -0.138747
4.515000 -0.138823
4.520000 -0.138900
4.525000 -0.138977
4.530000 -0.139054
4.535000 -0.139131
4.540000 -0.139208
4.545000 -0.139286
4.550000 -0.139363
4.555000 -0.139441
4.560000 -0.139519
4.565000 -0.139597
4.570000 -0.139675
4.575000 -0.139754
4.580000 -0.139832
4.585000 -0.139911
4.590000 -0.139990
4.595000 -0.140069
4.600000 -0.140148
4.605000 -0.140227
4.610000 -0.140307
4.615000 -0.140386
4.620000 -0.140466
4.625000 -0.140546
4.630000 -0.140626
4.635000 -0.140706
4.640000 -0.140786
4.645000 -0.140867
4.650000 -0.140948
4.655000 -0.141029
4.660000 -0.141110
4.665000 -0.141191
4.670000 -0.141272
4.675000 -0.141353
4.680000 -0.141435
4.685000 -0.141517
4.690000 -0.141599
4.695000 -0.141681
4.700000 -0.141763
4.705000 -0.141846
4.710000 -0.141928
4.715000 -0.142011
4.720000 -0.142094
4.725000 -0.142177
4.730000 -0.142260
4.735000 -0.142344
4.740000 -0.142428
4.745000 -0.142511
4.750000 -0.142595
4.755000 -0.142679
4.760000 -0.142764
4.765000 -0.142848
4.770000 -0.142933
4.775000 -0.143018
4.780000 -0.143102
4.785000 -0.143188
4.790000 -0.143273
4.795000 -0.143358
4.800000 -0.143444
4.805000 -0.143530
4.810000 -0.143616
4.815000 -0.143702
4.820000 -0.143788
4.825000 -0.143875
4.830000 -0.143962
4.835000 -0.144049
4.840000 -0.144136
4.845000 -0.144223
4.850000 -0.144310
4.855000 -0.144398
4.860000 -0.144486
4.865000 -0.144574
4.870000 -0.144662
4.875000 -0.144750
4.880000 -0.144839
4.885000 -0.144927
4.890000 -0.145016
4.895000 -0.145105
4.900000 -0.145195
4.905000 -0.145284
4.910000 -0.145374
4.915000 -0.145463
4.920000 -0.145553
4.925000 -0.145644
4.930000 -0.145734
4.935000 -0.145825
4.940000 -0.145915
4.945000 -0.146006
4.950000 -0.146097
4.955000 -0.146189
4.960000 -0.146280
4.965000 -0.146372
